id,tsUnix,AN,CO,CO2,NH3,__rssi,pmx,pmy
1430661,1457751857918,0,163,185,18,31,1.0,0.0
1430672,1457752119017,0,160,185,18,31,1.5,0.2
1430684,1457752379646,0,165,184,18,31,2.7,0.1
1430698,1457752640479,0,161,184,18,31,0.8,0.2
1430713,1457752901103,0,163,185,18,31,0.9,0.0
1430726,1457753161474,0,157,185,18,31,0.4,0.0
1430739,1457753422187,0,159,184,18,31,2.2,0.5
1430752,1457753685211,0,164,184,18,31,1.1,0.2
1430769,1457753954152,0,155,183,18,31,1.6,0.3
1430786,1457754217039,0,155,184,18,31,0.7,0.1
1430800,1457754477709,0,170,183,18,31,3.0,0.8
1430815,1457754738957,0,161,184,18,31,1.1,0.1
1430830,1457754999895,0,161,183,18,31,1.2,0.0
1430846,1457755260323,0,163,184,18,31,1.5,0.2
1430860,1457755522164,0,167,184,18,31,1.2,0.4
1430875,1457755786632,0,163,184,18,31,1.2,0.2
1430890,1457756047176,0,163,183,18,31,1.4,0.1
1430906,1457756307805,0,165,183,18,31,1.2,0.2
1430934,1457756821031,0,163,183,18,31,1.9,0.1
1430946,1457757082116,0,161,183,18,31,1.1,0.2
1430962,1457757342800,0,162,182,18,31,1.1,0.1
1430977,1457757603379,0,160,182,19,31,0.4,0.1
1430991,1457757863895,0,162,184,18,31,0.4,0.0
1431005,1457758125940,0,164,184,18,31,1.6,0.4
1431018,1457758386384,0,163,184,18,31,3.1,0.5
1431032,1457758657764,0,163,185,18,31,0.9,0.2
1431047,1457758918204,0,161,185,18,31,1.0,0.1
1431063,1457759178709,0,160,185,18,31,0.8,0.0
1431078,1457759440459,0,170,185,18,31,0.4,0.0
1431093,1457759701324,0,167,184,18,31,1.6,0.2
1431109,1457759962026,0,168,185,18,31,1.1,0.0
1431125,1457760227876,0,162,186,18,31,0.8,0.2
1431140,1457760488422,0,164,184,18,31,1.4,0.4
1431154,1457760750594,0,158,184,18,31,1.1,0.0
1431168,1457761011427,0,163,184,17,31,1.5,0.4
1431184,1457761272044,0,154,182,18,31,1.2,0.0
1431199,1457761532627,0,157,184,18,31,1.1,0.0
1431211,1457761793225,0,163,183,17,31,1.0,0.0
1431228,1457762053996,0,161,183,17,31,0.8,0.2
1431258,1457762567740,0,173,183,18,31,1.7,0.2
1431274,1457762828498,0,161,183,18,31,1.7,0.2
1431289,1457763089181,0,159,184,17,31,0.0,0.0
1431302,1457763350246,0,163,184,17,31,0.2,0.0
1431316,1457763612702,0,165,184,18,31,1.4,0.3
1431333,1457763873426,0,175,184,19,31,0.0,0.0
1431348,1457764134899,0,161,184,17,31,0.4,0.0
1431364,1457764395320,0,160,184,18,31,1.4,0.3
1431378,1457764659145,0,159,184,17,31,0.4,0.0
1431394,1457764919842,0,159,183,18,31,0.6,0.0
1431409,1457765180613,0,160,183,17,31,1.3,0.2
1431423,1457765441199,0,164,184,17,31,0.3,0.0
1431437,1457765702302,0,159,183,17,31,1.1,0.0
1431452,1457765963302,0,163,183,17,31,0.0,0.0
1431468,1457766235217,0,176,184,17,31,1.6,0.4
1431486,1457766495651,0,157,183,17,31,0.7,0.0
1431501,1457766756324,0,160,184,17,31,1.1,0.2
1431516,1457767019569,0,168,184,17,31,0.4,0.0
1431529,1457767280217,0,164,183,17,31,1.1,0.3
1431543,1457767541612,0,159,184,17,31,1.6,0.1
1431561,1457767802251,0,159,183,17,31,1.1,0.1
1431574,1457768066194,0,169,183,17,31,0.8,0.0
1431590,1457768326720,0,159,183,17,31,0.5,0.0
1431607,1457768587292,0,156,185,17,31,1.0,0.4
1431623,1457768848022,0,165,183,18,31,0.5,0.2
1431638,1457769108572,0,160,182,17,31,0.8,0.1
1431654,1457769369822,0,163,184,17,31,2.1,0.2
1431672,1457769681883,0,162,184,18,31,1.1,0.0
1431687,1457769943926,0,167,184,18,31,1.5,0.0
1431702,1457770205416,0,160,185,18,31,1.2,0.2
1431716,1457770466745,0,167,184,18,31,0.9,0.4
1431732,1457770728598,0,174,184,17,31,1.5,0.0
1431747,1457770989147,0,163,184,17,31,1.0,0.1
1431762,1457771249912,0,167,184,17,31,1.5,0.3
1431776,1457771511506,0,158,183,17,31,2.0,0.1
1431792,1457771774037,0,162,184,17,31,1.8,0.1
1431807,1457772034733,0,165,183,17,31,1.3,0.2
1431823,1457772297458,0,164,183,18,31,1.3,0.1
1431838,1457772558175,0,157,182,18,31,1.5,0.3
1431851,1457772819275,0,161,183,17,31,1.4,0.2
1431867,1457773081000,0,169,182,17,31,0.5,0.0
1431881,1457773341497,0,166,183,17,31,0.6,0.0
1431896,1457773602919,0,166,183,17,31,0.9,0.3
1431911,1457773868027,0,161,182,17,31,2.1,0.2
1431925,1457774138477,0,162,183,18,31,1.2,0.2
1431937,1457774401525,0,164,183,18,31,1.1,0.1
1431950,1457774663125,0,159,185,18,31,1.2,0.1
1431965,1457774923731,0,165,184,17,31,1.1,0.0
1431987,1457775230805,0,157,184,18,31,1.1,0.1
1432000,1457775491462,0,160,183,18,31,1.6,0.3
1432029,1457776014412,0,167,183,18,31,0.5,0.0
1432042,1457776281212,0,155,183,18,31,1.5,0.0
1432057,1457776542583,0,156,185,18,31,0.9,0.2
1432074,1457776804152,0,163,183,18,31,0.8,0.0
1432089,1457777066784,0,156,182,18,31,1.6,0.1
1432104,1457777327029,0,172,182,18,31,0.4,0.0
1432122,1457777587990,0,154,183,18,31,1.1,0.1
1432137,1457777849645,0,165,183,17,31,2.2,0.7
1432153,1457778112821,0,162,183,17,31,2.0,0.2
1432167,1457778373744,0,166,183,17,31,0.4,0.0
1432183,1457778635764,0,159,183,17,31,2.2,0.5
1432210,1457779051530,0,161,184,17,31,1.2,0.3
1432226,1457779312181,0,155,182,17,31,1.1,0.1
1432242,1457779572749,0,166,184,17,31,1.2,0.0
1432259,1457779843019,0,156,183,18,31,1.1,0.1
1432275,1457780121504,0,158,183,18,31,1.5,0.1
1432309,1457780679068,0,171,183,18,31,0.8,0.1
1432325,1457780943843,0,155,183,18,31,1.2,0.4
1432339,1457781208206,1,165,184,18,31,0.9,0.2
1432357,1457781471881,0,165,182,18,31,0.9,0.3
1432371,1457781735352,0,163,182,18,31,0.6,0.0
1432387,1457781996365,0,159,185,18,31,1.1,0.1
1432402,1457782256871,0,160,183,18,31,1.3,0.1
1432417,1457782517773,0,160,182,18,31,1.4,0.0
1432432,1457782778566,0,160,181,18,31,1.4,0.0
1432444,1457783039106,0,162,181,18,31,0.9,0.0
1432463,1457783299622,0,163,182,18,31,0.9,0.1
1432477,1457783560356,0,170,183,18,31,1.0,0.2
1432494,1457783826129,0,162,183,18,31,1.4,0.3
1432510,1457784088818,0,158,183,18,31,1.5,0.2
1432526,1457784354424,0,160,183,18,31,1.2,0.0
1432543,1457784616269,0,164,183,19,31,0.7,0.0
1432557,1457784876606,0,167,182,18,31,1.2,0.4
1432573,1457785137260,0,165,183,18,31,1.3,0.1
1432589,1457785397648,0,159,183,18,31,1.6,99.0
1432606,1457785658069,0,171,183,18,31,1.0,0.1
1432623,1457785919961,0,163,183,18,31,1.0,0.3
1432637,1457786180485,0,166,184,18,31,1.1,0.2
1432652,1457786441193,0,158,184,18,31,1.0,0.1
1432666,1457786703230,0,164,186,19,31,0.8,0.0
1432684,1457786963517,0,160,185,18,31,0.6,0.1
1432700,1457787224361,0,163,191,18,31,0.5,0.0
1432716,1457787484788,0,168,191,18,31,1.0,0.0
1432733,1457787746562,0,167,189,18,31,1.2,0.2
1432749,1457788007409,0,159,192,18,31,0.7,0.0
1432762,1457788268011,0,167,190,19,31,1.1,0.1
1432780,1457788529964,0,165,192,19,31,0.6,0.0
1432793,1457788790520,0,164,197,18,31,1.4,0.1
1432807,1457789056911,0,158,195,18,31,1.1,0.4
1432824,1457789321361,0,160,192,18,31,1.1,0.3
1432839,1457789582068,0,163,191,18,31,1.5,0.2
1432856,1457789843191,0,161,188,18,31,3.4,0.7
1432871,1457790105626,0,166,183,17,31,2.4,0.3
1432885,1457790373043,0,156,183,18,31,1.6,0.2
1432902,1457790634611,0,158,182,18,31,1.0,0.3
1432916,1457790895197,0,160,183,18,31,1.7,0.1
1432959,1457791691089,0,160,181,18,31,2.2,0.7
1432973,1457791952197,0,157,181,18,31,2.7,0.8
1432988,1457792212522,0,153,181,18,31,1.5,0.0
1433004,1457792476580,0,163,181,18,31,1.7,0.3
1433022,1457792738517,0,167,180,18,31,1.0,0.2
1433036,1457793000075,0,161,180,18,31,1.5,0.3
1433052,1457793260600,0,157,180,17,31,2.0,0.3
1433066,1457793521268,0,167,180,18,31,1.1,0.3
1433082,1457793787725,0,165,180,18,31,3.0,0.7
1433118,1457794414628,0,152,179,17,31,0.6,0.0
1433134,1457794675956,0,164,179,18,31,1.4,0.2
1433150,1457794937021,0,163,180,18,31,1.7,0.6
1433166,1457795199804,0,163,180,18,31,3.2,0.4
1433184,1457795460799,0,159,182,18,31,1.0,0.0
1433199,1457795724062,0,165,183,18,31,2.2,0.4
1433213,1457795984817,0,161,181,18,31,1.3,0.3
1433229,1457796248243,0,167,181,18,31,1.3,0.2
1433244,1457796512924,0,168,180,17,31,0.3,0.0
1433260,1457796777389,0,165,180,17,31,1.5,0.2
1433274,1457797038086,0,169,180,18,31,2.3,0.5
1433291,1457797298708,0,157,180,18,31,1.4,0.2
1433309,1457797561301,0,151,180,18,31,1.1,0.1
1433321,1457797821826,0,163,181,18,31,3.0,0.6
1433338,1457798082709,0,167,182,18,31,1.9,0.3
1433351,1457798345239,0,166,182,18,31,1.1,0.0
1433367,1457798608270,0,162,182,18,31,1.3,0.4
1433382,1457798871212,0,163,182,18,31,1.5,0.3
1433395,1457799136126,0,166,182,18,31,2.2,0.5
1433412,1457799401106,0,164,182,18,31,1.9,0.5
1433428,1457799661800,0,153,181,18,31,2.1,0.5
1433443,1457799923826,0,160,182,18,31,2.0,0.1
1433459,1457800186313,0,163,183,18,31,1.0,0.0
1433476,1457800449615,0,167,181,18,31,1.5,0.1
1433492,1457800710102,0,167,182,18,31,1.0,0.2
1433507,1457800970552,0,163,181,18,31,2.1,0.0
1433521,1457801231284,0,166,181,18,31,1.5,0.4
1433535,1457801491704,0,162,182,18,31,1.5,0.3
1433549,1457801752121,0,160,181,18,31,1.7,0.0
1433564,1457802012449,0,163,181,19,31,1.0,0.0
1433580,1457802272763,0,161,182,18,31,0.3,0.0
1433593,1457802533072,0,162,182,18,31,1.1,0.0
1433608,1457802794010,0,162,183,18,31,2.1,0.0
1433623,1457803054530,0,169,185,18,31,0.8,0.0
1433639,1457803314841,0,167,186,18,31,2.2,0.5
1433655,1457803575302,0,159,186,19,31,2.4,0.2
1433669,1457803835737,0,166,185,18,31,3.1,0.9
1433683,1457804103684,0,160,185,18,31,1.2,0.1
1433698,1457804369419,0,169,184,18,31,0.9,0.2
1433715,1457804629730,0,156,184,18,31,1.5,0.4
1433730,1457804895022,0,163,184,18,31,1.3,0.2
1433745,1457805166892,0,165,182,18,31,0.9,0.1
1433760,1457805428009,0,159,183,18,31,2.2,0.3
1433774,1457805688534,0,163,183,18,31,2.0,0.5
1433789,1457805949035,0,169,183,18,31,1.2,0.1
1433803,1457806209175,0,161,181,17,31,2.0,0.3
1433818,1457806470213,0,155,181,18,31,1.0,0.0
1433834,1457806730831,0,160,181,18,31,3.0,0.4
1433847,1457806992366,0,157,181,18,31,1.9,0.2
1433864,1457807254236,0,164,181,18,31,0.6,0.0
1433876,1457807514718,0,160,181,18,31,0.8,0.0
1433889,1457807775989,0,161,182,18,31,1.9,0.0
1433904,1457808036822,0,163,182,18,31,1.8,0.3
1433918,1457808297224,0,158,182,18,31,1.2,0.0
1433934,1457808560002,0,165,184,18,31,1.3,0.0
1433949,1457808821375,0,166,184,17,31,0.5,0.0
1433963,1457809082910,0,163,183,17,31,2.2,0.2
1433978,1457809343384,0,167,183,17,31,0.5,0.0
1433993,1457809606842,0,164,183,18,31,1.5,0.1
1434010,1457809869249,0,157,186,18,31,2.0,0.2
1434025,1457810130229,0,151,185,18,31,1.7,0.2
1434039,1457810391162,0,160,185,17,31,1.7,0.1
1434055,1457810656728,0,160,187,17,31,1.0,0.1
1434068,1457810917462,0,164,187,17,31,1.5,0.3
1434082,1457811178362,0,157,190,17,31,0.8,0.0
1434100,1457811440873,0,162,192,17,31,0.7,0.0
1434114,1457811701440,0,160,196,17,31,1.6,0.3
1434129,1457811962190,0,168,193,16,31,2.6,0.8
1434142,1457812222714,0,162,191,17,31,0.8,0.2
1434156,1457812483347,0,157,202,17,31,1.9,0.3
1434172,1457812744207,0,165,208,17,31,3.0,0.4
1434185,1457813006790,0,159,206,17,31,1.5,0.1
1434200,1457813267187,0,163,197,16,31,1.5,0.0
1434213,1457813528145,0,161,198,17,31,2.0,0.1
1434230,1457813789021,0,163,203,17,31,1.4,0.0
1434243,1457814051062,0,160,209,17,31,0.8,0.0
1434255,1457814311544,0,160,214,17,31,1.3,0.0
1434270,1457814577920,0,166,206,17,31,0.7,0.0
1434282,1457814838280,0,160,206,17,31,1.3,0.0
1434296,1457815098834,0,161,204,17,31,1.5,0.0
1434308,1457815359540,0,162,204,17,31,1.5,0.2
1434321,1457815619846,0,163,212,17,31,1.2,0.0
1434336,1457815880624,0,162,210,17,31,1.5,0.0
1434349,1457816140929,0,159,204,17,31,1.3,0.0
1434363,1457816401307,0,159,203,17,31,1.2,0.0
1434376,1457816662174,0,165,205,17,31,0.8,0.0
1434388,1457816923052,0,157,210,17,31,1.7,0.1
1434401,1457817183542,0,159,203,17,31,0.7,0.0
1434412,1457817445175,0,161,204,17,31,1.2,0.1
1434425,1457817705741,0,155,201,17,31,2.2,0.2
1434438,1457817966365,0,161,204,17,31,0.9,0.2
1434450,1457818231684,0,160,202,17,31,0.3,0.0
1434464,1457818493785,0,163,202,17,31,0.9,0.2
1434478,1457818754249,0,157,208,18,31,1.2,0.0
1434489,1457819014600,0,166,207,17,31,1.4,0.2
1434500,1457819274793,0,164,204,17,31,1.2,0.2
1434512,1457819535863,0,162,207,16,31,1.1,0.2
1434525,1457819796223,0,161,210,16,31,0.6,0.1
1434538,1457820056600,0,161,202,17,31,1.3,0.1
1434549,1457820316861,0,162,200,17,31,1.7,0.1
1434562,1457820577248,0,166,205,17,31,0.5,0.0
1434575,1457820838025,0,159,190,17,31,1.4,0.0
1434586,1457821098526,0,168,185,17,31,1.7,0.2
1434601,1457821358989,0,163,184,17,31,1.0,0.0
1434612,1457821619790,0,160,182,17,31,0.8,0.1
1434623,1457821880525,0,163,182,18,31,1.0,0.0
1434635,1457822140937,0,168,182,17,31,0.8,0.1
1434647,1457822401725,0,162,182,17,31,1.2,0.0
1434660,1457822662326,0,163,182,17,31,1.3,0.2
1434674,1457822922788,0,167,183,17,31,1.2,0.1
1434686,1457823185134,0,167,184,17,31,1.6,0.3
1434697,1457823445645,0,156,182,17,31,0.8,0.2
1434709,1457823706929,0,161,181,17,31,0.9,0.2
1434721,1457823967500,0,164,183,17,31,0.6,0.1
1434734,1457824243075,0,160,182,17,31,0.8,0.0
1434747,1457824505801,0,162,183,17,31,1.3,0.0
1434759,1457824766946,0,155,183,17,31,1.7,0.1
1434771,1457825027573,0,164,184,17,31,0.3,0.0
1434784,1457825288590,0,164,185,17,31,1.3,0.1
1434796,1457825549052,0,157,184,17,31,0.6,0.1
1434808,1457825809453,0,155,184,17,31,1.4,0.1
1434821,1457826070434,0,162,182,17,31,0.6,0.0
1434835,1457826336141,0,164,182,17,31,0.6,0.1
1434847,1457826596928,0,162,181,17,31,1.3,0.2
1434858,1457826857506,0,159,181,17,31,2.6,0.4
1434870,1457827123440,0,170,181,17,31,1.0,0.2
1434903,1457827832356,0,160,181,16,31,1.1,0.0
1434917,1457828093245,0,161,181,17,31,1.1,0.2
1434930,1457828361794,0,165,181,17,31,1.5,0.2
1434940,1457828626635,0,161,181,17,31,1.8,0.4
1434955,1457828924345,0,167,180,17,31,1.7,0.2
1434969,1457829184736,0,158,180,17,31,0.7,0.0
1434980,1457829445909,0,165,182,16,31,0.4,0.0
1434991,1457829707168,0,166,181,17,31,1.5,0.1
1435004,1457829968677,0,158,183,17,31,1.5,0.2
1435014,1457830229130,0,155,182,16,31,2.3,0.2
1435026,1457830489736,0,157,182,16,31,0.6,0.1
1435036,1457830750509,0,161,183,17,31,0.7,0.1
1435047,1457831012853,0,158,182,16,31,0.8,0.0
1435058,1457831273201,0,161,184,16,31,1.1,0.0
1435066,1457831533848,0,158,185,16,31,1.8,0.3
1435075,1457831794470,0,162,184,16,31,1.0,0.2
1435085,1457832055880,0,160,185,17,31,1.2,0.0
1435095,1457832316531,0,170,183,16,31,0.7,0.0
1435107,1457832577123,0,167,184,16,31,0.9,0.1
1435117,1457832837952,0,158,185,17,31,0.8,0.0
1435127,1457833103690,0,161,183,17,31,1.1,0.2
1435137,1457833364225,0,160,183,16,31,1.1,0.0
1435146,1457833627152,0,166,184,17,31,1.3,0.1
1435157,1457833890905,0,163,184,17,31,1.9,0.4
1435168,1457834153553,0,164,182,17,31,1.1,0.0
1435179,1457834416367,0,166,183,17,31,1.8,0.2
1435189,1457834677522,0,157,183,17,31,1.1,0.0
1435200,1457834939493,0,158,183,17,31,1.1,0.0
1435225,1457835479449,0,164,183,17,31,0.9,0.0
1435236,1457835739860,0,159,183,17,31,1.6,0.2
1435246,1457836002299,0,170,183,17,31,0.7,0.2
1435257,1457836263749,0,169,182,17,31,0.9,0.2
1435269,1457836525059,0,165,182,17,31,1.0,0.0
1435282,1457836785359,0,166,182,17,31,1.1,0.2
1435295,1457837045691,0,164,182,17,31,1.5,0.3
1435306,1457837307184,0,165,181,17,31,2.1,0.3
1435319,1457837568767,0,167,182,17,31,1.2,0.2
1435330,1457837828883,0,162,182,17,31,1.0,0.2
